#Cite as: J. Chem. Phys. 87, 4840 (1987); https://doi.org/10.1063/1.453710
#D. E. Hare, and C. M. Sorensen
# Temperature (C) Density (g/cm3)
0.00     0.9999
-1.00     0.9998
-2.00     0.9997
-3.00     0.9996
-4.00     0.9994
-5.00     0.9993
-6.00     0.9991
-7.00     0.9989
-8.00     0.9987
-9.00     0.9984
-10.00    0.9982
-11.00   0.9978
-12.00   0.9975
-13.00    0.9971
-14.00   0.9967
-15.00   0.9963
-16.00   0.9958
-17.00   0.9953
-18.00   0.9947
-19.00   0.9941
-20.00    0.9935
-21.00   0.9928
-22.00   0.9921
-23.00   0.9913
-24.00    0.9904
-25.00    0.9895
-26.00    0.9886
-27.00    0.9875
-28.00    0.9864
-29.00    0.9852
-30.00   0.9839
-31.00   0.9825
-32.00   0.9809
-33.00   0.9793
-34.00   0.9775